# Transfer functions T_i(k) for adiabatic (AD) mode (normalized to initial curvature=1) at redshift z=3
# for k=1.29086e-05 to 1.05742 h/Mpc,
# number of wavenumbers equal to 111
# d_kessence   stands for (\pi)(k,z) with above normalization, kessence field perturbation
# t_kessence stands for (\pi’)(k,z) with above normalization, kessence field derivative perturbation
#
#	1:k (1/Mpc)              2:d_kess                    3:t_kess 
1.421631000000e-05	-3.020085887700e+02	-2.090984413581e-01
1.789727000000e-05	-3.020255641774e+02	-2.090964666508e-01
2.253133000000e-05	-3.020081656425e+02	-2.090977182122e-01
2.836526000000e-05	-3.020076656243e+02	-2.090970181759e-01
3.570975000000e-05	-3.020084701092e+02	-2.090957500124e-01
4.495591000000e-05	-3.020160312622e+02	-2.090931471283e-01
5.659614000000e-05	-3.020223585871e+02	-2.090894904830e-01
7.125032000000e-05	-3.020134594772e+02	-2.090857150477e-01
8.969883000000e-05	-3.020146735777e+02	-2.090781642234e-01
1.129241000000e-04	-3.019948372977e+02	-2.090682918948e-01
1.421631000000e-04	-3.019824144668e+02	-2.090508406099e-01
1.789727000000e-04	-3.019751993016e+02	-2.090218457468e-01
2.253133000000e-04	-3.019476394500e+02	-2.089776438509e-01
2.836526000000e-04	-3.018943061796e+02	-2.089085459869e-01
3.570975000000e-04	-3.018282290185e+02	-2.087972480017e-01
4.495591000000e-04	-3.017088668559e+02	-2.086228502664e-01
5.659614000000e-04	-3.015218634156e+02	-2.083471414299e-01
7.125032000000e-04	-3.012356129299e+02	-2.079114543628e-01
8.969883000000e-04	-3.007806935120e+02	-2.072269099678e-01
1.129241000000e-03	-3.000575664829e+02	-2.061569254286e-01
1.421631000000e-03	-2.989282390763e+02	-2.044955653408e-01
1.789727000000e-03	-2.971643320788e+02	-2.019491249011e-01
2.253133000000e-03	-2.944463572078e+02	-1.981207969321e-01
2.836526000000e-03	-2.903019856822e+02	-1.925478127554e-01
3.570975000000e-03	-2.841500171180e+02	-1.848326704697e-01
4.495591000000e-03	-2.753293260216e+02	-1.749688827471e-01
5.659614000000e-03	-2.633056279530e+02	-1.637434668684e-01
7.125032000000e-03	-2.479511773374e+02	-1.524952544839e-01
8.969883000000e-03	-2.295302140645e+02	-1.412420229913e-01
1.129241000000e-02	-2.081064620487e+02	-1.278519953184e-01
1.421631000000e-02	-1.835897682632e+02	-1.122972397428e-01
1.789716000000e-02	-1.565937310467e+02	-9.528103230306e-02
2.251733000000e-02	-1.288815746968e+02	-7.798691240431e-02
2.792483000000e-02	-1.049573134682e+02	-6.335751028158e-02
3.241446000000e-02	-9.110185279254e+01	-5.520417933482e-02
3.568360000000e-02	-8.361221501081e+01	-5.087626199255e-02
3.839060000000e-02	-7.855786582213e+01	-4.801589970326e-02
4.081282000000e-02	-7.464173471925e+01	-4.578559758928e-02
4.307482000000e-02	-7.131382398899e+01	-4.385862057794e-02
4.524287000000e-02	-6.830191486208e+01	-4.207473546060e-02
4.735687000000e-02	-6.546078879441e+01	-4.034816180588e-02
4.944311000000e-02	-6.269811441290e+01	-3.863360039416e-02
5.152016000000e-02	-5.997670861096e+01	-3.691281506118e-02
5.360191000000e-02	-5.727951616862e+01	-3.518518628503e-02
5.569923000000e-02	-5.461194058257e+01	-3.346338273851e-02
5.782101000000e-02	-5.199419154088e+01	-3.176928772577e-02
5.997475000000e-02	-4.945647457739e+01	-3.013045937922e-02
6.216701000000e-02	-4.703396460457e+01	-2.857652059046e-02
6.440364000000e-02	-4.476143645837e+01	-2.713560945583e-02
6.668999000000e-02	-4.266948619659e+01	-2.583049847450e-02
6.903106000000e-02	-4.077852472938e+01	-2.467534915162e-02
7.143158000000e-02	-3.909516044189e+01	-2.367279726033e-02
7.389609000000e-02	-3.760985391830e+01	-2.281254512696e-02
7.642897000000e-02	-3.629619312329e+01	-2.207126409921e-02
7.903453000000e-02	-3.511258233491e+01	-2.141454296088e-02
8.171699000000e-02	-3.400905894695e+01	-2.080078134980e-02
8.448053000000e-02	-3.292492006919e+01	-2.018587990758e-02
8.732929000000e-02	-3.181345429144e+01	-1.953182687106e-02
9.026741000000e-02	-3.063482724517e+01	-1.881176522258e-02
9.329900000000e-02	-2.937191886850e+01	-1.801661806810e-02
9.642818000000e-02	-2.803607711429e+01	-1.715787154814e-02
9.965908000000e-02	-2.665968267883e+01	-1.626564620241e-02
1.029958000000e-01	-2.529850032965e+01	-1.538376289443e-02
1.064426000000e-01	-2.401003626757e+01	-1.455912351211e-02
1.100036000000e-01	-2.284533121561e+01	-1.383045313083e-02
1.136829000000e-01	-2.183244075782e+01	-1.321731209049e-02
1.174849000000e-01	-2.096920462137e+01	-1.271332687766e-02
1.214138000000e-01	-2.021546228096e+01	-1.228651594080e-02
1.254740000000e-01	-1.951707039320e+01	-1.189043894485e-02
1.296700000000e-01	-1.880859169566e+01	-1.147527660817e-02
1.340063000000e-01	-1.803885575987e+01	-1.100478995015e-02
1.384877000000e-01	-1.719969849018e+01	-1.047454937525e-02
1.431188000000e-01	-1.632317179142e+01	-9.912246787176e-03
1.479050000000e-01	-1.546684737177e+01	-9.364001364103e-03
1.528514000000e-01	-1.468297506243e+01	-8.871614535252e-03
1.579637000000e-01	-1.400317660793e+01	-8.457446681947e-03
1.632479000000e-01	-1.342099065199e+01	-8.113910238096e-03
1.687104000000e-01	-1.289410245885e+01	-7.805611595881e-03
1.743582000000e-01	-1.236560250994e+01	-7.489312121493e-03
1.801989000000e-01	-1.180274292028e+01	-7.140856533273e-03
1.862407000000e-01	-1.120998536104e+01	-6.766210285007e-03
1.924929000000e-01	-1.062479228385e+01	-6.396490770117e-03
1.989655000000e-01	-1.009226561695e+01	-6.065643380279e-03
2.056700000000e-01	-9.625395228704e+00	-5.782600661449e-03
2.126192000000e-01	-9.201405137382e+00	-5.528231360739e-03
2.198273000000e-01	-8.783397852198e+00	-5.273762235099e-03
2.273109000000e-01	-8.350195369749e+00	-5.004238254694e-03
2.350886000000e-01	-7.914831410677e+00	-4.731570159659e-03
2.431820000000e-01	-7.505630593379e+00	-4.477423585441e-03
2.516162000000e-01	-7.134835817932e+00	-4.250483735436e-03
2.604202000000e-01	-6.785263858941e+00	-4.037151343666e-03
2.696284000000e-01	-6.437116415124e+00	-3.821933762039e-03
2.792815000000e-01	-6.088982441518e+00	-3.605219938677e-03
2.894284000000e-01	-5.756611373122e+00	-3.399151068421e-03
3.001282000000e-01	-5.444282689974e+00	-3.206931248155e-03
3.114538000000e-01	-5.142125077579e+00	-3.020382809543e-03
3.234957000000e-01	-4.841784132701e+00	-2.833803244715e-03
3.363690000000e-01	-4.549636857624e+00	-2.652617102943e-03
3.502221000000e-01	-4.268835812757e+00	-2.478905730219e-03
3.652516000000e-01	-3.990874101426e+00	-2.306372665127e-03
3.817244000000e-01	-3.715958953257e+00	-2.135591145690e-03
4.000151000000e-01	-3.444689968743e+00	-1.967187424405e-03
4.206701000000e-01	-3.171721404857e+00	-1.797412278797e-03
4.445258000000e-01	-2.895753134917e+00	-1.625725215087e-03
4.729395000000e-01	-2.611185481427e+00	-1.448491411077e-03
5.082791000000e-01	-2.311995375943e+00	-1.262001941597e-03
5.550446000000e-01	-1.988019778394e+00	-1.059899622190e-03
6.225126000000e-01	-1.625988604169e+00	-8.339811976912e-04
7.295154000000e-01	-1.220185599807e+00	-5.811429149666e-04
8.992252000000e-01	-8.186802812008e-01	-3.333030770556e-04
1.130413000000e+00	-5.102006792514e-01	-1.492597058097e-04
1.423077000000e+00	-3.000880138051e-01	-3.560085563372e-05
1.791547000000e+00	-1.631237557658e-01	2.129794109394e-05
2.255424000000e+00	-7.982321772125e-02	3.524843731850e-05
2.839411000000e+00	-3.495511477161e-02	2.413890513724e-05
3.574607000000e+00	-1.460381508499e-02	9.510553602922e-06
4.500164000000e+00	-6.315139071492e-03	3.805417858117e-06
5.665370000000e+00	-2.646374662709e-03	1.862236534436e-06
7.132278000000e+00	-1.124786704841e-03	7.306391784715e-07
