# background statistics
# cycle   tau/boxsize    a             conformal H/H0  phi(k=0)       T00(k=0)
      0   9.997593e-01   9.900990e-03   5.696668e+00   0.000000e+00   3.120460e-01
      1   1.023149e+00   1.030088e-02   5.581878e+00   5.309179e-10   3.120460e-01
      2   1.047019e+00   1.071692e-02   5.469515e+00   9.906922e-10   3.120460e-01
      3   1.071380e+00   1.114977e-02   5.359523e+00   1.418265e-09   3.120460e-01
      4   1.096240e+00   1.160010e-02   5.251844e+00   1.817792e-09   3.120460e-01
      5   1.121611e+00   1.206863e-02   5.146426e+00   2.192440e-09   3.120460e-01
      6   1.147501e+00   1.255609e-02   5.043215e+00   2.545057e-09   3.120460e-01
      7   1.173920e+00   1.306324e-02   4.942160e+00   2.878226e-09   3.120460e-01
      8   1.200880e+00   1.359088e-02   4.843211e+00   3.194297e-09   3.120460e-01
      9   1.228391e+00   1.413984e-02   4.746320e+00   3.495414e-09   3.120460e-01
     10   1.256464e+00   1.471097e-02   4.651440e+00   3.783533e-09   3.120460e-01
     11   1.285109e+00   1.530518e-02   4.558526e+00   4.060447e-09   3.120460e-01
     12   1.314338e+00   1.592340e-02   4.467532e+00   4.327797e-09   3.120460e-01
     13   1.344162e+00   1.656659e-02   4.378415e+00   4.587090e-09   3.120460e-01
     14   1.374594e+00   1.723576e-02   4.291134e+00   4.839712e-09   3.120460e-01
     15   1.405644e+00   1.793197e-02   4.205648e+00   5.086941e-09   3.120460e-01
     16   1.437325e+00   1.865631e-02   4.121916e+00   5.329958e-09   3.120460e-01
     17   1.469651e+00   1.940991e-02   4.039901e+00   5.569858e-09   3.120460e-01
     18   1.502632e+00   2.019396e-02   3.959563e+00   5.807655e-09   3.120460e-01
     19   1.536282e+00   2.100968e-02   3.880868e+00   6.044297e-09   3.120460e-01
     20   1.570615e+00   2.185835e-02   3.803777e+00   6.280669e-09   3.120460e-01
     21   1.605644e+00   2.274132e-02   3.728258e+00   6.517598e-09   3.120460e-01
     22   1.641382e+00   2.365995e-02   3.654275e+00   6.755868e-09   3.120460e-01
     23   1.677844e+00   2.461570e-02   3.581796e+00   6.996214e-09   3.120460e-01
     24   1.715043e+00   2.561006e-02   3.510788e+00   7.239338e-09   3.120459e-01
     25   1.752995e+00   2.664460e-02   3.441220e+00   7.485906e-09   3.120459e-01
     26   1.791714e+00   2.772092e-02   3.373061e+00   7.736556e-09   3.120459e-01
     27   1.831216e+00   2.884074e-02   3.306281e+00   7.991901e-09   3.120459e-01
     28   1.871515e+00   3.000579e-02   3.240851e+00   8.252535e-09   3.120459e-01
     29   1.912628e+00   3.121792e-02   3.176743e+00   8.519031e-09   3.120459e-01
     30   1.954571e+00   3.247901e-02   3.113928e+00   8.791949e-09   3.120459e-01
     31   1.997359e+00   3.379105e-02   3.052381e+00   9.071839e-09   3.120459e-01
     32   2.041011e+00   3.515610e-02   2.992073e+00   9.359238e-09   3.120459e-01
     33   2.085542e+00   3.657630e-02   2.932981e+00   9.654679e-09   3.120459e-01
     34   2.130971e+00   3.805388e-02   2.875077e+00   9.958689e-09   3.120459e-01
     35   2.177314e+00   3.959116e-02   2.818339e+00   1.027180e-08   3.120459e-01
     36   2.224591e+00   4.119054e-02   2.762742e+00   1.059452e-08   3.120459e-01
     37   2.272819e+00   4.285454e-02   2.708262e+00   1.092739e-08   3.120459e-01
     38   2.322017e+00   4.458577e-02   2.654877e+00   1.127094e-08   3.120459e-01
     39   2.372204e+00   4.638694e-02   2.602565e+00   1.162569e-08   3.120459e-01
     40   2.423400e+00   4.826089e-02   2.551304e+00   1.199220e-08   3.120459e-01
     41   2.475625e+00   5.021054e-02   2.501073e+00   1.237100e-08   3.120458e-01
     42   2.528898e+00   5.223897e-02   2.451852e+00   1.276265e-08   3.120458e-01
     43   2.583241e+00   5.434935e-02   2.403620e+00   1.316771e-08   3.120458e-01
     44   2.638675e+00   5.654500e-02   2.356358e+00   1.358677e-08   3.120458e-01
     45   2.695220e+00   5.882936e-02   2.310046e+00   1.402041e-08   3.120458e-01
     46   2.752899e+00   6.120602e-02   2.264667e+00   1.446924e-08   3.120458e-01
     47   2.811734e+00   6.367871e-02   2.220202e+00   1.493386e-08   3.120458e-01
     48   2.871747e+00   6.625131e-02   2.176634e+00   1.541491e-08   3.120458e-01
     49   2.932961e+00   6.892785e-02   2.133946e+00   1.591303e-08   3.120458e-01
     50   2.995400e+00   7.171254e-02   2.092121e+00   1.642889e-08   3.120458e-01
     51   3.059087e+00   7.460976e-02   2.051142e+00   1.696316e-08   3.120457e-01
     52   3.124047e+00   7.762404e-02   2.010996e+00   1.751654e-08   3.120457e-01
     53   3.190303e+00   8.076013e-02   1.971665e+00   1.808974e-08   3.120457e-01
     54   3.257881e+00   8.402295e-02   1.933136e+00   1.868349e-08   3.120457e-01
     55   3.326806e+00   8.741762e-02   1.895394e+00   1.929854e-08   3.120457e-01
     56   3.397103e+00   9.094948e-02   1.858425e+00   1.993565e-08   3.120457e-01
     57   3.468799e+00   9.462407e-02   1.822218e+00   2.059560e-08   3.120457e-01
     58   3.541919e+00   9.844717e-02   1.786758e+00   2.127918e-08   3.120456e-01
     59   3.616491e+00   1.024248e-01   1.752033e+00   2.198722e-08   3.120456e-01
     60   3.692540e+00   1.065632e-01   1.718033e+00   2.272053e-08   3.120456e-01
     61   3.770094e+00   1.108688e-01   1.684745e+00   2.347996e-08   3.120456e-01
     62   3.849181e+00   1.153485e-01   1.652159e+00   2.426636e-08   3.120456e-01
     63   3.929828e+00   1.200093e-01   1.620266e+00   2.508058e-08   3.120456e-01
     64   4.012062e+00   1.248586e-01   1.589054e+00   2.592348e-08   3.120455e-01
     65   4.095911e+00   1.299039e-01   1.558517e+00   2.679592e-08   3.120455e-01
     66   4.181403e+00   1.351532e-01   1.528645e+00   2.769877e-08   3.120455e-01
     67   4.268566e+00   1.406147e-01   1.499430e+00   2.863288e-08   3.120455e-01
     68   4.357427e+00   1.462972e-01   1.470867e+00   2.959908e-08   3.120455e-01
     69   4.448014e+00   1.522095e-01   1.442948e+00   3.059818e-08   3.120454e-01
     70   4.540354e+00   1.583610e-01   1.415667e+00   3.163097e-08   3.120454e-01
     71   4.634473e+00   1.647613e-01   1.389021e+00   3.269818e-08   3.120454e-01
     72   4.730397e+00   1.714207e-01   1.363004e+00   3.380050e-08   3.120454e-01
     73   4.828153e+00   1.783496e-01   1.337615e+00   3.493856e-08   3.120453e-01
     74   4.927764e+00   1.855589e-01   1.312850e+00   3.611290e-08   3.120453e-01
     75   5.029254e+00   1.930602e-01   1.288708e+00   3.732395e-08   3.120453e-01
     76   5.132645e+00   2.008652e-01   1.265188e+00   3.857203e-08   3.120452e-01
     77   5.237958e+00   2.089865e-01   1.242292e+00   3.985733e-08   3.120452e-01
     78   5.345212e+00   2.174368e-01   1.220021e+00   4.117985e-08   3.120452e-01
     79   5.454424e+00   2.262296e-01   1.198377e+00   4.253942e-08   3.120451e-01
     80   5.565609e+00   2.353790e-01   1.177366e+00   4.393561e-08   3.120451e-01
     81   5.678778e+00   2.448996e-01   1.156991e+00   4.536774e-08   3.120451e-01
     82   5.793940e+00   2.548064e-01   1.137259e+00   4.683483e-08   3.120450e-01
     83   5.911099e+00   2.651156e-01   1.118179e+00   4.833556e-08   3.120450e-01
     84   6.030258e+00   2.758434e-01   1.099760e+00   4.986819e-08   3.120450e-01
     85   6.151413e+00   2.870073e-01   1.082013e+00   5.143055e-08   3.120449e-01
     86   6.274555e+00   2.986252e-01   1.064950e+00   5.301995e-08   3.120449e-01
     87   6.399670e+00   3.107159e-01   1.048586e+00   5.463314e-08   3.120448e-01
     88   6.526737e+00   3.232990e-01   1.032936e+00   5.626623e-08   3.120448e-01
     89   6.655730e+00   3.363948e-01   1.018017e+00   5.791472e-08   3.120447e-01
     90   6.786613e+00   3.500248e-01   1.003850e+00   5.957327e-08   3.120447e-01
     91   6.919343e+00   3.642112e-01   9.904553e-01   6.123586e-08   3.120447e-01
     92   7.053868e+00   3.789773e-01   9.778556e-01   6.289559e-08   3.120446e-01
     93   7.190126e+00   3.943473e-01   9.660756e-01   6.454457e-08   3.120446e-01
     94   7.328046e+00   4.103466e-01   9.551419e-01   6.617410e-08   3.120445e-01
     95   7.467545e+00   4.270017e-01   9.450827e-01   6.777455e-08   3.120445e-01
     96   7.608529e+00   4.443403e-01   9.359276e-01   6.933533e-08   3.120444e-01
     97   7.750891e+00   4.623913e-01   9.277081e-01   7.084491e-08   3.120444e-01
     98   7.894515e+00   4.811848e-01   9.204569e-01   7.229130e-08   3.120443e-01
     99   8.039270e+00   5.007524e-01   9.142080e-01   7.366167e-08   3.120442e-01
    100   8.185015e+00   5.211270e-01   9.089965e-01   7.494269e-08   3.120442e-01
    101   8.331596e+00   5.423430e-01   9.048582e-01   7.612070e-08   3.120441e-01
    102   8.478847e+00   5.644363e-01   9.018298e-01   7.718203e-08   3.120441e-01
    103   8.626592e+00   5.874443e-01   8.999482e-01   7.811301e-08   3.120440e-01
    104   8.774646e+00   6.114062e-01   8.992503e-01   7.890069e-08   3.120440e-01
    105   8.922815e+00   6.363626e-01   8.997731e-01   7.953285e-08   3.120439e-01
    106   9.070898e+00   6.623561e-01   9.015530e-01   7.999831e-08   3.120439e-01
    107   9.218689e+00   6.894310e-01   9.046257e-01   8.028709e-08   3.120438e-01
    108   9.365977e+00   7.176334e-01   9.090259e-01   8.039085e-08   3.120438e-01
    109   9.512553e+00   7.470114e-01   9.147874e-01   8.030326e-08   3.120438e-01
    110   9.658206e+00   7.776151e-01   9.219424e-01   8.002021e-08   3.120437e-01
    111   9.802728e+00   8.094964e-01   9.305219e-01   7.953968e-08   3.120437e-01
    112   9.945917e+00   8.427095e-01   9.405551e-01   7.886197e-08   3.120436e-01
    113   1.008758e+01   8.773109e-01   9.520699e-01   7.798994e-08   3.120436e-01
    114   1.022753e+01   9.133590e-01   9.650925e-01   7.692872e-08   3.120436e-01
    115   1.036559e+01   9.509149e-01   9.796478e-01   7.568563e-08   3.120436e-01
    116   1.050160e+01   9.900420e-01   9.957593e-01   7.427025e-08   3.120435e-01
    117   1.063541e+01   1.030806e+00   1.013449e+00   7.461110e-08   3.120435e-01
